t (s),Distance de fil (m)
0,0
3.15544362088405e-30,6.55560189867879e-36
1.60493603251712e-05,3.31533434118146e-11
3.20987206503424e-05,9.92706008644549e-11
4.81480809755136e-05,1.98163425348125e-10
6.41974413006848e-05,3.19920312829489e-10
9.30798786511992e-05,6.13389565372401e-10
0.000165089578817634,1.790536425498e-09
0.000221975379696219,3.16333734971082e-09
0.000278861180574805,4.92357108778527e-09
0.000335746981453391,7.06351694119958e-09
0.000404976878571177,1.01677869504233e-08
0.000496928947140247,1.51165187656858e-08
0.000619427899170389,2.31227267190255e-08
0.00078079060505022,3.60239943309733e-08
0.00100118011915066,5.77109366057847e-08
0.00122156963325109,8.38021974443942e-08
0.00144195914735153,1.13966052523561e-07
0.00166234866145197,1.47892021209854e-07
0.00194335687783327,1.96118463862085e-07
0.00222436509421457,2.49460638679645e-07
0.00250537331059587,3.07431370874885e-07
0.00286730453470402,3.8814477972327e-07
0.00322923575881217,4.74967324437472e-07
0.00368058792372276,5.90609989880858e-07
0.00413194008863336,7.1337655168119e-07
0.00469301016599511,8.74227803033954e-07
0.00525408024335687,1.04277224321442e-06
0.00581515032071862,1.21760819441491e-06
0.006520649965378,1.44450451692348e-06
0.00738207932447943,1.7298717105007e-06
0.00824350868358085,2.02226710490272e-06
0.00940159727665144,2.4229710465555e-06
0.0109774991413105,2.97750644856178e-06
0.0131413479391524,3.74897958851497e-06
0.0162643731189836,4.87200704699682e-06
0.021321736139652,6.69851116592931e-06
0.031309421138902,1.03108436349986e-05
0.0575007510594808,1.97924257684355e-05
0.0999999999999991,3.52270676055272e-05
0.1,3.52270676055276e-05
0.100000000000001,3.52270676055279e-05
0.168332820185873,6.03759458075574e-05
0.236665640371745,8.59480940066913e-05
0.317894302328266,0.000117185265730401
0.317904827904183,0.000117189313445026
0.3179153534801,0.000117193361175657
0.317925879056017,0.000117197408922296
0.317936404631934,0.000117201456680139
0.317955734957688,0.000117208890466045
0.317965223034845,0.0001172125392779
0.317965223034849,0.000117212539277901
0.317976743366528,0.000117216969655433
0.317988263698208,0.000117221400052143
0.31800327552977,0.000117227173214428
0.318018287361333,0.000117232946399889
0.318043249911986,0.000117242546454706
0.318113514879603,0.0001172695693148
0.318168341246558,0.00011729065520782
0.318223167613513,0.000117311741535764
0.318277993980469,0.000117332828298949
0.318332820347424,0.000117353915497159
0.318412706010329,0.000117384641725917
0.318525779476914,0.00011742813447788
0.318672805273681,0.000117484689474345
0.318862268417859,0.000117557573053088
0.319128290800374,0.000117659916582449
0.319567527906092,0.000117828921359304
0.320501383931819,0.000118188333309581
0.320501383931824,0.000118188333309583
0.320700376005157,0.000118264938403151
0.320899368078491,0.000118341549269289
0.321098360151824,0.000118418165911489
0.321297352225157,0.000118494786599006
0.321667146686173,0.000118637187732704
0.322234772316047,0.000118855808017038
0.323060479846042,0.000119173912046766
0.324929054557488,0.000119894150784483
0.325022430121638,0.000119930156360128
0.325115805685788,0.000119966163223262
0.325302556814087,0.000120038182101855
0.325537874020747,0.000120128935559002
0.325939638905016,0.00012028389935028
0.326814512368373,0.000120621426429884
0.328270245000015,0.000121183300552539
0.331404128609054,0.000122393971621324
0.333968999852111,0.000123385921573023
0.336533871095169,0.000124378868720632
0.339098742338227,0.000125372820475798
0.341663613581284,0.000126367784170893
0.34487401646792,0.000127614600386756
0.348084419354556,0.000128863027993173
0.352049033447514,0.000130406992034649
0.356013647540471,0.000131953462625961
0.360845188477562,0.000133841524623027
0.365676729414653,0.000135733398378649
0.371629482113704,0.000138069620997495
0.377582234812754,0.000140411795081086
0.385083844842599,0.000143372011882283
0.394105602677948,0.000146945085377341
0.403127360513297,0.000150532612351166
0.403127360513302,0.000150532612351168
0.404988385021718,0.000151274784783834
0.406849409530134,0.000152017590024289
0.409237221961127,0.000152971703275929
0.41162503439212,0.0001539265642326
0.415940648325661,0.000155654768407829
0.423914789288622,0.000158857080284895
0.438294046384377,0.000164662356473584
0.438294046384381,0.000164662356473586
0.441976593003857,0.000166156849016061
0.445659139623334,0.000167654037938299
0.44934168624281,0.00016915394430415
0.45397355548175,0.000171043366113887
0.463395837188105,0.000174899585858956
0.465292771181827,0.00017567839579822
0.467189705175549,0.000176457954957274
0.470983573162992,0.000178020089966628
0.476908843312856,0.000180464545162097
0.487036801613423,0.000184659115151279
0.510677766038742,0.000194537484304627
0.536135575501764,0.000205316273606078
0.561593384964787,0.000216248599928306
0.587051194427809,0.00022734132507119
0.612509003890831,0.000238601144241794
0.637966813353853,0.000250034695892272
0.669195733330221,0.000264307852538278
0.707337166990983,0.000282127441830846
0.745478600651744,0.000300391886624941
0.796033029587745,0.000325327027525325
0.805604433558373,0.000330158591059327
0.815175837529,0.000335021935631648
0.834318645470256,0.000344878089267009
0.872604261352767,0.000364910277677063
0.949175493117788,0.000406588372402636
0.96261616926024,0.000414166078866356
0.97639683189666,0.000422013294458961
0.990526088607638,0.000430141939822498
1.00465534531862,0.000438354630794582
1.03291385874057,0.00045512412975886
1.08943088558448,0.000489518112832612
1.20246493927231,0.000562667529471244
1.22231317483969,0.00057622302159708
1.24216141040708,0.000589982014866153
1.26301389879542,0.000604665528240397
1.28439391893804,0.000619964651441218
1.306314816224,0.00063591189040687
1.32823571350996,0.000652124670776521
1.37207750808188,0.000685645965741511
1.42470093769919,0.000726987996761948
1.51482376884217,0.000801391973211841
1.67222344325524,0.00094392822227368
1.67389881644542,0.000945533273465992
1.67557418963559,0.00094714031315679
1.67772589002112,0.000949207536661097
1.67987759040665,0.000951278049478801
1.68202929079219,0.000953350866959261
1.68615850830718,0.000957337168410726
1.69436048010884,0.000965290826806676
1.70313467084388,0.000973852371471868
1.71190886157891,0.000982469458871842
1.72068305231395,0.000991142484594888
1.72945724304899,0.000999871761991052
1.73823143378403,0.0010086576084287
1.74700562451907,0.00101750035196643
1.7589200812956,0.00102959964854365
1.77418309456263,0.00104525510276739
1.79325567202416,0.00106506632962977
1.82186537269447,0.00109530898322345
1.84474741709016,0.0011199558452973
1.86762946148585,0.00114501742541108
1.89051150588154,0.00117049980741023
1.91339355027723,0.00119640905264643
1.93627559467292,0.00122275124642814
1.95915763906861,0.00124953251005035
1.9820396834643,0.00127675900345383
1.99999999999999,0.0012984467621658
2,0.00129844676216582
2.00000000000003,0.00129844676216586
2.00449147079522,0.00130514295762886
2.00890508206882,0.00131351408165422
2.01328050282817,0.00132385112466776
2.01765592358751,0.00133636354716931
2.02203134434686,0.00135112363020295
2.02640676510621,0.00136748255671247
2.03490161102826,0.00140531297058889
2.04747656354174,0.00147702835346669
2.06501746564277,0.00160901734935672
2.09405456606356,0.00190888006150044
2.16195740202078,0.00299348021533093
2.22986023797801,0.00459736938236441
2.28364182282247,0.00621793702743678
2.2836418228225,0.00621793702743772
2.28840569008892,0.00637609977668292
2.29316955735534,0.00653458084744929
2.30269729188817,0.00685183374463368
2.32175276095384,0.00748648178240396
2.35591803934508,0.00862446024074514
2.36246842237843,0.00884264417105723
2.36901880541177,0.00906082918382011
2.38211957147846,0.00949720451726153
2.38933267682943,0.00973746856760477
2.39654578218039,0.00997773431280037
2.41097199288233,0.010458272694663
2.43982441428619,0.0114193663925586
2.44849689679134,0.0117082586587876
2.45716937929648,0.0119971535582109
2.47451434430678,0.0125749540666883
2.50920427432736,0.0137305815058027
2.51963123847815,0.0140779448783496
2.53005820262895,0.0144253123824097
2.55091213093053,0.0151200642480546
2.5926199875337,0.016509609784501
2.67603570074003,0.0192889132441116
2.8428671271527,0.0248485101906639
3.17652997997805,0.0359727762058002
3.84385568562873,0.0582534476530942
3.88795215322536,0.0597274338728448
3.932048620822,0.0612017083590714
4.02024155601526,0.0641514854031025
4.06876383513444,0.0657747950345131
4.11728611425362,0.0673985117687835
4.21433067249197,0.0706476859666806
4.40841978896868,0.077150689668839
4.46664482490078,0.0791032360084808
4.52486986083287,0.0810565883169184
4.58599325344873,0.0831081050717609
4.64711664606459,0.0851605941107927
4.76936343129631,0.0892697683998522
4.86982872062364,0.0926491094046748
4.8861304939859,0.0931976279819195
4.89234225852846,0.0934063998690314
4.90216349030425,0.0937349560314965
4.91297021456584,0.0940953524715567
4.92377693882743,0.0944557162331631
4.93705819020969,0.0948989498783582
4.95360321254854,0.0954513254510227
4.97373656824281,0.0961235807444657
5,0.0970005761265623
5.05174630612018,0.0987286893082173
5.17528406384529,0.10285552197502
5.25316194546157,0.1054583825771
5.33103982707786,0.108062088924624
5.48679559031043,0.113273252782927
5.79830711677556,0.12370615565704
5.89168777296677,0.126837479474581
5.98506842915797,0.12997066550898
6.17182974154038,0.136244981399962
6.1922060009761,0.1369297159272
6.24632530654808,0.138747700511903
6.35084642340509,0.142260163499499
6.4553675402621,0.145775155112415
6.50313597101056,0.147382139140375
6.51686920377702,0.147844186674231
6.52457125744681,0.148103235119227
6.5394310197608,0.148602137609262
6.56051734904346,0.149308875242553
6.58160367832611,0.15001521529741
6.60269000760877,0.150721569986643
6.63604105778636,0.151838886299534
6.67973178533071,0.153302815587177
6.6986598701563,0.153937121844178
6.70482868054689,0.154143761665997
6.71627019807687,0.154525939171932
6.72771171560684,0.154907931159056
6.73915323313681,0.155290750704778
6.75059475066679,0.155674286478309
6.765993730437,0.15619083828165
6.78557945616922,0.156847963024556
6.81533525670512,0.157846413199354
6.86917672080993,0.159653426145968
6.90157641791149,0.160741038736758
6.94309852048248,0.162134968597192
6.95839929729537,0.162648659666601
6.96508519119914,0.162872956762657
6.97177108510291,0.163096507660744
6.98421283375376,0.163511231275941
6.99665458240462,0.163925664738506
7.00909633105548,0.1643402219096
7.03981157632164,0.165363827874217
7.0705268215878,0.166387520922417
7.10124206685395,0.167411221724638
7.15083328977617,0.169064038678504
7.27916254515054,0.173341217628663
7.41073360746933,0.17772662342525
7.54230466978813,0.182112230831332
7.68052128437176,0.186719555714483
7.81873789895539,0.19132704729939
8.09517112812265,0.200542009483652
8.12533088188703,0.201547393060227
8.1308378981676,0.201730886327778
8.13634491444816,0.201914011227287
8.14130062462492,0.202078650507082
8.14858846428873,0.202320805781348
8.15793001680448,0.202631515879175
8.17311475925835,0.203137128353337
8.18829950171222,0.203643037543355
8.20348424416609,0.204148998994784
8.30578615315535,0.207557614677886
8.31881175959946,0.207991616566807
8.32740865985257,0.208277952184833
8.34457275975894,0.208849140156831
8.37331280070617,0.209805527847869
8.4020528416534,0.210762082918373
8.44534994822144,0.212203357446435
8.50229519960532,0.214099050750925
8.66499561349981,0.219515195471632
8.82769602739431,0.224931206260222
9.15309685518329,0.235763146921154
9.43658605635306,0.245200213046393
9.50714421989323,0.247549101512134
9.5340302947225,0.248444141619287
9.56335597913157,0.249420284699763
9.62365510187052,0.251427456065309
9.67560063232766,0.25315676168882
9.75911875843089,0.255937410380633
9.95358036352701,0.262413223316808
10,0.263959125442038
10.2005147758234,0.270638478177231
10.2256258943967,0.271474984934475
10.2379341495192,0.271884960514392
10.2514108592417,0.272333579817248
10.2720037512503,0.273018715518206
10.2982726670116,0.273892907371921
10.3245415827729,0.2747673794161
10.3746506598016,0.276435675636938
10.4247597368303,0.278104037272055
10.4977431698487,0.28053391243572
10.6280985563099,0.284873700622837
10.8445775902341,0.292080306078815
11.0610566241582,0.299287209082454
11.1152773733991,0.301092334470552
11.1418537607728,0.301977086142473
11.2137495379615,0.304370357152117
11.4450785945771,0.31207119141852
11.6764076511927,0.319772168929758
12.1390657644238,0.335174340772407
12.9825168217602,0.363253450134297
13.1027607581492,0.367256674645827
13.1551390168403,0.369000507836109
13.2083423497929,0.370771785064354
13.2615456827455,0.372543009062952
13.3679523486506,0.376085404060617
13.580765680461,0.38317018966771
13.7076014976737,0.38739269847096
13.7444680445665,0.388620027675532
13.755067029332,0.388972784503563
13.7748941454189,0.389632153722837
13.8018361118826,0.390528248249353
13.8287780783463,0.391424700464108
13.8750384657,0.392964302433806
13.9212988530537,0.394504094783822
13.9865384465339,0.396675668060459
14.1137725068309,0.400910782589203
14.2013735960054,0.403826714313516
14.2896102472252,0.406763782941475
14.598758794361,0.417054123242482
14.8027968354706,0.423845754491244
14.8886985339396,0.426705088893501
14.9371814525555,0.428318882186114
15,0.430409820572806
15.3271288609967,0.441298715290443
15.6542577219935,0.452187734464249
16.3085154439869,0.473966421221391
16.4605186675584,0.479026307715777
16.4906089384892,0.48002793350985
16.52069920942,0.481029529441194
16.5808797512816,0.483032757505987
16.6864214488671,0.48654602967223
16.7565834464819,0.488881563046822
17.1281268331922,0.501249323463952
17.4996702199026,0.513617126105618
17.8233588184046,0.524392009849403
18.0173914235923,0.530850946989996
18.1333780103595,0.53471190001583
18.1667236901088,0.535821886519396
18.2378477129262,0.538189205779472
18.3178319244234,0.540851485870376
18.5891323410859,0.549882372881053
18.7073108025841,0.553816291933995
18.7600202335049,0.555570873752485
18.8127296644257,0.557325432958305
18.9972341972871,0.563467040131331
19.0776043718015,0.566142257550477
19.2013082365468,0.570259856340656
19.325012101292,0.574377476218186
19.5724198307826,0.582612756511732
19.7586737524937,0.588812464206531
19.7786203200926,0.589476376179999
19.7985668876916,0.59014023697227
19.8384600228894,0.591467948071364
19.9182462932852,0.594123520286133
20,0.596844695390096
20.2135716072086,0.603953494372319
20.6725975444133,0.619232689414839
21.1316234816179,0.634511849255675
22.0496753560272,0.665070096314406
23.2899351339828,0.706353315635558
25,0.763274500536046
25.530734765453,0.780940652702916
25.6700333282981,0.785577402349695
25.7245295856358,0.78739137072157
25.7579660289674,0.788504282745232
25.8600731525695,0.791902738063306
26.4620090041055,0.81193871835077
27.0791051721592,0.832479378560664
27.4863886430747,0.846036216681393
27.7808936917598,0.855839100858171
28.1600677639216,0.86846026443844
28.8201216010315,0.890430796345539
29.4801754381414,0.912401351464895
29.706611017287,0.919938490886192
29.7909591762611,0.922746095717911
30,0.929704188346563
30.2090408237389,0.936662336378842
30.6271224712168,0.950578686618868
30.7857822489636,0.955859875354319
31.044980444207,0.964487596692036
31.8692589307764,0.991924642705393
33.874699875738,1.05867790782152
35,1.09613468762304
35.5016166584576,1.1128315541754
35.5967970951319,1.11599974275093
35.6715359394815,1.11848750398591
35.8880568779596,1.12569460928793
36.6570335699246,1.15129074748617
37.4260102618895,1.17688687969165
38.9639636458194,1.22807917472969
40,1.26256470073996
42.0236597949039,1.32992452377233
42.396396574514,1.34233153044324
42.5735494895905,1.34822828841961
42.6904704135411,1.35212010610492
42.8185689778213,1.35638396864882
42.8714390031562,1.35814378326777
42.9412536493382,1.36046754891638
43.1404127104231,1.36709660225399
44.0928763470938,1.39880026216136
45,1.428994679677
46.3287317322325,1.47322266127814
47.657463464465,1.51745064163926
49.2035375779181,1.56891302790874
50,1.5954239750827
50.1410107216711,1.60011763753586
50.2820214433422,1.60481129950994
50.5640428866843,1.61419865736458
51.1280857733687,1.63297338158612
52.2826086101901,1.67140275447257
52.5016762705366,1.67869462541295
52.6736954831054,1.68442043883471
54.1500715918471,1.73356292295152
55,1.76185356927608
55.8499284081529,1.79014422818589
56.5041677215902,1.81192120933297
56.9329740826046,1.82619444369296
57.0405378354843,1.82977479579828
57.1481015883639,1.83335514109064
57.3632290941232,1.84051583617795
57.7934841056418,1.85483724540155
57.9028474497026,1.85847749625599
58.0122107937635,1.86211771592952
58.2309374818853,1.86939818750815
58.6683908581289,1.88395916220984
59.5472528917638,1.91321283465404
60,1.92828290398399
60.2483718266397,1.93655016955594
60.8184328187738,1.95552511499213
60.9937186538431,1.96135964735959
61.1690044889125,1.96719417905259
61.5195761590513,1.97886325353822
62.2207194993288,2.00220142493857
63.655865856796,2.04997152766685
64.0422990464306,2.06283429138213
64.317634239778,2.07199905132678
65,2.09471214779522
65.6557787223581,2.11654027874627
66.0885926791144,2.13094684495294
67.1771853582287,2.16718155449627
69.3543707164575,2.23965096471271
69.7804860435955,2.2538345704052
70,2.26114127298775
70.6456292835425,2.28263156729874
71.9368878506276,2.32561215384007
73.6178391673569,2.38156397768883
75,2.4275703130541
78.0631121493724,2.52952843688551
80,2.59399927970435
85,2.7604281877266
90,2.92685702905077
91.8872147597331,2.98967439866613
93.7744295194661,3.05249175814537
95,3.09328578700564
100,3.25971448154399
105,3.42614310863602
107.26699744793,3.5016017326908
109.53399489586,3.57706034209404
110,3.59257165012916
114.194045937262,3.73217338871971
115,3.75900012728947
117.520216399302,3.84288725075202
120,3.92542852338163
125,4.09185672564566
130,4.25828475900361
135,4.42471257804427
135.626166288,4.44555491753433
135.877594602344,4.45392388276066
135.949879237004,4.45632991951991
136.273592186008,4.46710488076273
136.700893278694,4.48132784724523
137.41470985381,4.50508766824987
137.928908974806,4.52220315146191
138.045463413377,4.52608274764632
138.607384863885,4.54478653449585
139.169306314393,4.5634904444716
139.717564146894,4.58173957990735
139.798763324918,4.5844423432472
139.886422020584,4.58736007843006
140,4.59114055742171
143.156640175606,4.69621126755789
145,4.75756861597463
150,4.92399656607978
155,5.09042446492266
160,5.25685230506338
165,5.42328007726052
168.786608230988,5.54931936429565
170,5.58970775627361
175,5.75613535090474
180,5.92256289297439
185,6.0889903758564
190,6.25541779166397
194.420079182216,6.40254217639111
195,6.42184510871183
200,6.58827234722966
205,6.75469953277384
210,6.92112665936176
215,7.08755371906348
215.001082729062,7.08758987773822
215.002165458124,7.08762615581382
215.003248187186,7.08766255303522
215.004330916248,7.08769903353348
215.006589646919,7.08777548928785
215.010569484066,7.08791141115838
215.017025940554,7.08813487509912
215.022205618479,7.08831608597219
215.027385296404,7.08849746331211
215.032564974329,7.0886772851752
215.037744652254,7.08885450933321
215.038695253699,7.08888676231993
215.038695253701,7.08888676231999
215.043874931626,7.08905996476088
215.049054609551,7.08923259546975
215.053496744196,7.08938111586397
215.059276172154,7.0895756842541
215.071961941036,7.09001570817501
215.084647709917,7.09047984194109
215.097333478799,7.09097479321175
215.110019247681,7.0915036181377
215.127875029888,7.09230419422834
215.129385487115,7.09237474079799
215.130548804627,7.09242901180636
215.13171212214,7.09248304165499
215.132755311347,7.09253133216095
215.133798500554,7.09257961800237
215.134841689762,7.09262803984228
215.136952763657,7.09272684739117
215.139063837552,7.09282690232998
215.141174911448,7.09292834117553
215.143285985343,7.09303120913346
215.146065312875,7.09316882742205
215.147759302215,7.0932539135882
215.148654494645,7.09329923825479
215.149549687075,7.09334479920406
215.150589409328,7.09339799839735
